# Delay[ns]	Correlation 	
-150	0.999283
-149.995	0.999162
-149.99	0.998978
-149.985	0.998887
-149.98	0.998908
-149.975	0.998948
-149.97	0.998989
-149.965	0.998937
-149.96	0.998968
-149.955	0.999127
-149.95	0.999318
-149.945	0.999468
-149.94	0.999689
-149.935	0.999807
-149.93	1.00003
-149.925	1.00027
-149.92	1.00053
-149.915	1.00067
-149.91	1.00072
-149.905	1.0008
-149.9	1.00089
-149.895	1.00101
-149.89	1.00113
-149.885	1.00129
-149.88	1.00136
-149.875	1.00125
-149.87	1.00102
-149.865	1.00074
-149.86	1.00048
-149.855	1.00027
-149.85	1.00018
-149.845	1.00015
-149.84	1
-149.835	0.999836
-149.83	0.999676
-149.825	0.99957
-149.82	0.99948
-149.815	0.999462
-149.81	0.999512
-149.805	0.99959
-149.8	0.999704
-149.795	0.999968
-149.79	1.00028
-149.785	1.0005
-149.78	1.00061
-149.775	1.00059
-149.77	1.00052
-149.765	1.00048
-149.76	1.0005
-149.755	1.00057
-149.75	1.00053
-149.745	1.00047
-149.74	1.0004
-149.735	1.00031
-149.73	1.00038
-149.725	1.00028
-149.72	1.00008
-149.715	0.99985
-149.71	0.99967
-149.705	0.999605
-149.7	0.999676
-149.695	0.999631
-149.69	0.999637
-149.685	0.999613
-149.68	0.999603
-149.675	0.999662
-149.67	0.999663
-149.665	0.999775
-149.66	1.00002
-149.655	1.00025
-149.65	1.00051
-149.645	1.0007
-149.64	1.00089
-149.635	1.00096
-149.63	1.00093
-149.625	1.0009
-149.62	1.00088
-149.615	1.00083
-149.61	1.00069
-149.605	1.00058
-149.6	1.00055
-149.595	1.00044
-149.59	1.00032
-149.585	1.00021
-149.58	1.00013
-149.575	1.00003
-149.57	0.999983
-149.565	1
-149.56	1.00009
-149.555	1.00009
-149.55	1.00008
-149.545	1.0001
-149.54	1.00008
-149.535	1.0001
-149.53	1.0001
-149.525	1.00005
-149.52	0.999972
-149.515	0.999871
-149.51	0.999862
-149.505	1.00002
-149.5	1.00018
-149.495	1.00037
-149.49	1.00042
-149.485	1.00046
-149.48	1.00034
-149.475	1.00021
-149.47	1.00021
-149.465	1.00025
-149.46	1.00022
-149.455	1.00022
-149.45	1.00026
-149.445	1.00032
-149.44	1.00045
-149.435	1.00059
-149.43	1.00068
-149.425	1.00072
-149.42	1.00075
-149.415	1.00066
-149.41	1.00043
-149.405	1.00016
-149.4	0.999919
-149.395	0.999789
-149.39	0.999682
-149.385	0.999618
-149.38	0.999692
-149.375	0.999773
-149.37	0.999791
-149.365	0.999824
-149.36	0.999849
-149.355	0.999895
-149.35	0.999925
-149.345	0.999977
-149.34	1.00015
-149.335	1.00028
-149.33	1.00036
-149.325	1.00049
-149.32	1.00065
-149.315	1.00077
-149.31	1.00077
-149.305	1.00075
-149.3	1.00074
-149.295	1.00079
-149.29	1.00083
-149.285	1.0008
-149.28	1.00074
-149.275	1.00076
-149.27	1.00069
-149.265	1.00072
-149.26	1.00064
-149.255	1.00058
-149.25	1.00044
-149.245	1.00033
-149.24	1.00021
-149.235	1.00012
-149.23	1.00011
-149.225	1.00002
-149.22	0.999954
-149.215	0.99994
-149.21	0.999984
-149.205	1.00005
-149.2	1.00005
-149.195	0.99995
-149.19	0.999692
-149.185	0.999495
-149.18	0.999364
-149.175	0.999192
-149.17	0.999152
-149.165	0.999142
-149.16	0.999235
-149.155	0.999283
-149.15	0.999338
-149.145	0.999351
-149.14	0.999369
-149.135	0.999555
-149.13	0.9997
-149.125	0.999905
-149.12	1.00007
-149.115	1.00018
-149.11	1.00026
-149.105	1.00032
-149.1	1.00031
-149.095	1.00038
-149.09	1.00049
-149.085	1.00056
-149.08	1.00067
-149.075	1.00068
-149.07	1.00059
-149.065	1.00049
-149.06	1.00035
-149.055	1.00017
-149.05	0.999992
-149.045	0.999815
-149.04	0.999683
-149.035	0.999565
-149.03	0.999527
-149.025	0.999471
-149.02	0.999532
-149.015	0.999606
-149.01	0.999693
-149.005	0.999752
-149	0.999798
-148.995	0.999929
-148.99	1.00004
-148.985	1.00007
-148.98	1.00011
-148.975	1.00017
-148.97	1.00023
-148.965	1.00029
-148.96	1.0003
-148.955	1.0002
-148.95	1.00014
-148.945	1.00015
-148.94	1.00009
-148.935	1.00003
-148.93	0.999997
-148.925	0.999984
-148.92	0.999931
-148.915	0.999802
-148.91	0.999711
-148.905	0.999588
-148.9	0.999588
-148.895	0.999704
-148.89	0.999774
-148.885	0.999824
-148.88	0.999886
-148.875	1.00001
-148.87	1.00012
-148.865	1.00023
-148.86	1.00032
-148.855	1.00042
-148.85	1.00051
-148.845	1.00051
-148.84	1.00047
-148.835	1.00034
-148.83	1.00015
-148.825	1.0001
-148.82	1.00001
-148.815	0.999917
-148.81	0.999882
-148.805	0.999899
-148.8	1
-148.795	1.00006
-148.79	1.00008
-148.785	1.00018
-148.78	1.0002
-148.775	1.00029
-148.77	1.00038
-148.765	1.00045
-148.76	1.00047
-148.755	1.0004
-148.75	1.00027
-148.745	1.00014
-148.74	0.999956
-148.735	0.999814
-148.73	0.99976
-148.725	0.999632
-148.72	0.999401
-148.715	0.999267
-148.71	0.999142
-148.705	0.998975
-148.7	0.99897
-148.695	0.999045
-148.69	0.999112
-148.685	0.999117
-148.68	0.999057
-148.675	0.99907
-148.67	0.999144
-148.665	0.999181
-148.66	0.999101
-148.655	0.999136
-148.65	0.999121
-148.645	0.999229
-148.64	0.999375
-148.635	0.99953
-148.63	0.999656
-148.625	0.999836
-148.62	0.999967
-148.615	1.00004
-148.61	1.00004
-148.605	1
-148.6	0.999971
-148.595	0.99999
-148.59	0.999999
-148.585	0.999954
-148.58	0.999938
-148.575	0.999895
-148.57	0.999767
-148.565	0.999696
-148.56	0.999711
-148.555	0.99984
-148.55	0.99997
-148.545	1.00008
-148.54	1.00018
-148.535	1.00032
-148.53	1.00049
-148.525	1.00063
-148.52	1.00079
-148.515	1.00085
-148.51	1.0008
-148.505	1.00068
-148.5	1.00059
-148.495	1.00052
-148.49	1.00058
-148.485	1.00062
-148.48	1.00061
-148.475	1.00059
-148.47	1.00046
-148.465	1.00032
-148.46	1.00021
-148.455	1.00017
-148.45	1.00007
-148.445	1
-148.44	0.999863
-148.435	0.999694
-148.43	0.999581
-148.425	0.999464
-148.42	0.999268
-148.415	0.999138
-148.41	0.999095
-148.405	0.999117
-148.4	0.999262
-148.395	0.999274
-148.39	0.999253
-148.385	0.999107
-148.38	0.999007
-148.375	0.998927
-148.37	0.998913
-148.365	0.99898
-148.36	0.999049
-148.355	0.999129
-148.35	0.99909
-148.345	0.999161
-148.34	0.99929
-148.335	0.999435
-148.33	0.999498
-148.325	0.999514
-148.32	0.999509
-148.315	0.999526
-148.31	0.999545
-148.305	0.999564
-148.3	0.999646
-148.295	0.999646
-148.29	0.999696
-148.285	0.999755
-148.28	0.999815
-148.275	0.999999
-148.27	1.00015
-148.265	1.00021
-148.26	1.00018
-148.255	1.00008
-148.25	0.999865
-148.245	0.999669
-148.24	0.999512
-148.235	0.999456
-148.23	0.999484
-148.225	0.999508
-148.22	0.999456
-148.215	0.999364
-148.21	0.999325
-148.205	0.999341
-148.2	0.999394
-148.195	0.999428
-148.19	0.999485
-148.185	0.999535
-148.18	0.999564
-148.175	0.999659
-148.17	0.999786
-148.165	0.999861
-148.16	0.999923
-148.155	0.999961
-148.15	0.999912
-148.145	0.999801
-148.14	0.999661
-148.135	0.999549
-148.13	0.999549
-148.125	0.999609
-148.12	0.99955
-148.115	0.999516
-148.11	0.999515
-148.105	0.999372
-148.1	0.99929
-148.095	0.99925
-148.09	0.999181
-148.085	0.99915
-148.08	0.99911
-148.075	0.998959
-148.07	0.998859
-148.065	0.998804
-148.06	0.99875
-148.055	0.998833
-148.05	0.998816
-148.045	0.998794
-148.04	0.99885
-148.035	0.998952
-148.03	0.999131
-148.025	0.999345
-148.02	0.999537
-148.015	0.999644
-148.01	0.999759
-148.005	0.999842
-148	0.999924
-147.995	0.999935
-147.99	0.99997
-147.985	1.00002
-147.98	1.00009
-147.975	1.00018
-147.97	1.00024
-147.965	1.0004
-147.96	1.00054
-147.955	1.00066
-147.95	1.00076
-147.945	1.00084
-147.94	1.00091
-147.935	1.00097
-147.93	1.00105
-147.925	1.00107
-147.92	1.00106
-147.915	1.001
-147.91	1.00079
-147.905	1.00052
-147.9	1.00035
-147.895	1.00025
-147.89	1.00019
-147.885	1.00006
-147.88	0.999934
-147.875	0.999678
-147.87	0.999404
-147.865	0.99917
-147.86	0.998937
-147.855	0.998776
-147.85	0.99866
-147.845	0.998675
-147.84	0.99869
-147.835	0.998818
-147.83	0.99893
-147.825	0.999039
-147.82	0.999226
-147.815	0.999407
-147.81	0.99964
-147.805	0.999801
-147.8	0.999909
-147.795	0.99997
-147.79	1.00002
-147.785	1.00015
-147.78	1.00028
-147.775	1.00043
-147.77	1.00064
-147.765	1.0008
-147.76	1.00089
-147.755	1.00085
-147.75	1.00075
-147.745	1.00068
-147.74	1.00064
-147.735	1.00055
-147.73	1.00035
-147.725	1.00022
-147.72	1.00014
-147.715	1.00014
-147.71	1.00017
-147.705	1.0002
-147.7	1.00025
-147.695	1.00035
-147.69	1.00029
-147.685	1.00015
-147.68	0.999993
-147.675	0.999815
-147.67	0.999686
-147.665	0.999594
-147.66	0.999634
-147.655	0.999703
-147.65	0.999637
-147.645	0.999519
-147.64	0.999403
-147.635	0.999226
-147.63	0.999071
-147.625	0.998917
-147.62	0.998762
-147.615	0.998524
-147.61	0.998337
-147.605	0.998261
-147.6	0.99822
-147.595	0.998259
-147.59	0.998354
-147.585	0.998398
-147.58	0.998556
-147.575	0.998621
-147.57	0.998695
-147.565	0.99883
-147.56	0.999014
-147.555	0.999187
-147.55	0.999343
-147.545	0.999526
-147.54	0.999714
-147.535	0.999962
-147.53	1.00022
-147.525	1.00045
-147.52	1.00056
-147.515	1.00059
-147.51	1.00062
-147.505	1.0007
-147.5	1.0007
-147.495	1.00062
-147.49	1.00058
-147.485	1.00046
-147.48	1.00025
-147.475	1.00016
-147.47	1.00011
-147.465	1.00002
-147.46	0.999923
-147.455	0.999945
-147.45	0.999988
-147.445	0.999929
-147.44	0.999895
-147.435	0.999819
-147.43	0.999708
-147.425	0.999599
-147.42	0.99944
-147.415	0.999377
-147.41	0.999344
-147.405	0.999306
-147.4	0.999239
-147.395	0.999161
-147.39	0.999123
-147.385	0.999205
-147.38	0.999373
-147.375	0.999675
-147.37	0.999993
-147.365	1.00033
-147.36	1.00058
-147.355	1.00079
-147.35	1.00079
-147.345	1.00076
-147.34	1.00067
-147.335	1.00061
-147.33	1.00042
-147.325	1.0003
-147.32	1.00017
-147.315	1.00003
-147.31	0.999949
-147.305	0.999855
-147.3	0.99975
-147.295	0.999733
-147.29	0.999695
-147.285	0.999742
-147.28	0.99979
-147.275	0.999813
-147.27	0.999781
-147.265	0.999697
-147.26	0.999529
-147.255	0.999441
-147.25	0.999446
-147.245	0.999497
-147.24	0.99952
-147.235	0.999552
-147.23	0.999596
-147.225	0.99969
-147.22	0.999871
-147.215	1
-147.21	1.00014
-147.205	1.00034
-147.2	1.0005
-147.195	1.00053
-147.19	1.00053
-147.185	1.00064
-147.18	1.00071
-147.175	1.00075
-147.17	1.00074
-147.165	1.00072
-147.16	1.00067
-147.155	1.00062
-147.15	1.0006
-147.145	1.00062
-147.14	1.0006
-147.135	1.00055
-147.13	1.00054
-147.125	1.00047
-147.12	1.00043
-147.115	1.00047
-147.11	1.00052
-147.105	1.00051
-147.1	1.00047
-147.095	1.00044
-147.09	1.00044
-147.085	1.00044
-147.08	1.00028
-147.075	1.00002
-147.07	0.999743
-147.065	0.99956
-147.06	0.999394
-147.055	0.99924
-147.05	0.999119
-147.045	0.999041
-147.04	0.998979
-147.035	0.998938
-147.03	0.998932
-147.025	0.999016
-147.02	0.999131
-147.015	0.999304
-147.01	0.999515
-147.005	0.999712
-147	0.999952
-146.995	1.00015
-146.99	1.00036
-146.985	1.00042
-146.98	1.00049
-146.975	1.00045
-146.97	1.00044
-146.965	1.00041
-146.96	1.00027
-146.955	1.00013
-146.95	1.00002
-146.945	0.999987
-146.94	0.999936
-146.935	0.999792
-146.93	0.99964
-146.925	0.999557
-146.92	0.999435
-146.915	0.999351
-146.91	0.999302
-146.905	0.999299
-146.9	0.999326
-146.895	0.999355
-146.89	0.999427
-146.885	0.999602
-146.88	0.999717
-146.875	0.999844
-146.87	0.999979
-146.865	1.00004
-146.86	1.00014
-146.855	1.00014
-146.85	1.0001
-146.845	1.00013
-146.84	1.00013
-146.835	1.0001
-146.83	1.00007
-146.825	1.00004
-146.82	0.999953
-146.815	0.999775
-146.81	0.999567
-146.805	0.999351
-146.8	0.999244
-146.795	0.999179
-146.79	0.999235
-146.785	0.999268
-146.78	0.999269
-146.775	0.999251
-146.77	0.999325
-146.765	0.999447
-146.76	0.999521
-146.755	0.999478
-146.75	0.999555
-146.745	0.999634
-146.74	0.999646
-146.735	0.999615
-146.73	0.999615
-146.725	0.999752
-146.72	0.999953
-146.715	1.00009
-146.71	1.00025
-146.705	1.00029
-146.7	1.00025
-146.695	1.00024
-146.69	1.00036
-146.685	1.00062
-146.68	1.00089
-146.675	1.00108
-146.67	1.0011
-146.665	1.00122
-146.66	1.00122
-146.655	1.00104
-146.65	1.00098
-146.645	1.00091
-146.64	1.00083
-146.635	1.00074
-146.63	1.00063
-146.625	1.00053
-146.62	1.00028
-146.615	0.999959
-146.61	0.999772
-146.605	0.999635
-146.6	0.999656
-146.595	0.999759
-146.59	0.999936
-146.585	1.00011
-146.58	1.00025
-146.575	1.00027
-146.57	1.00033
-146.565	1.00044
-146.56	1.00061
-146.555	1.00073
-146.55	1.00078
-146.545	1.0008
-146.54	1.0009
-146.535	1.00104
-146.53	1.00127
-146.525	1.00132
-146.52	1.00138
-146.515	1.0013
-146.51	1.00122
-146.505	1.00113
-146.5	1.00105
-146.495	1.00095
-146.49	1.00077
-146.485	1.00057
-146.48	1.00042
-146.475	1.00029
-146.47	1.00013
-146.465	1.00002
-146.46	0.999788
-146.455	0.999553
-146.45	0.999266
-146.445	0.999079
-146.44	0.999044
-146.435	0.998969
-146.43	0.998934
-146.425	0.998933
-146.42	0.999006
-146.415	0.999154
-146.41	0.999335
-146.405	0.999567
-146.4	0.999819
-146.395	1.00008
-146.39	1.00027
-146.385	1.00042
-146.38	1.00047
-146.375	1.00053
-146.37	1.0006
-146.365	1.00061
-146.36	1.00054
-146.355	1.00058
-146.35	1.00062
-146.345	1.00064
-146.34	1.00072
-146.335	1.00068
-146.33	1.00058
-146.325	1.00042
-146.32	1.00026
-146.315	1.00016
-146.31	1.00001
-146.305	0.999926
-146.3	0.999764
-146.295	0.999565
-146.29	0.999401
-146.285	0.999246
-146.28	0.9991
-146.275	0.999079
-146.27	0.999188
-146.265	0.999241
-146.26	0.999375
-146.255	0.999579
-146.25	0.999769
-146.245	0.999833
-146.24	0.99989
-146.235	0.999831
-146.23	0.999809
-146.225	0.999853
-146.22	0.999914
-146.215	1.00003
-146.21	1.00013
-146.205	1.00021
-146.2	1.00022
-146.195	1.0002
-146.19	1.00016
-146.185	1.00016
-146.18	1.0001
-146.175	1.00009
-146.17	1.00003
-146.165	0.999981
-146.16	1.00004
-146.155	1.00015
-146.15	1.00015
-146.145	1.00014
-146.14	1.00016
-146.135	1.00012
-146.13	1.00008
-146.125	0.999995
-146.12	0.999965
-146.115	0.999987
-146.11	1.00007
-146.105	1.00015
-146.1	1.00027
-146.095	1.00038
-146.09	1.00041
-146.085	1.00035
-146.08	1.00029
-146.075	1.00031
-146.07	1.00039
-146.065	1.00035
-146.06	1.00021
-146.055	1.00014
-146.05	1.00009
-146.045	1.00003
-146.04	1.00003
-146.035	1.00003
-146.03	0.999975
-146.025	0.999984
-146.02	0.999966
-146.015	0.999889
-146.01	0.999876
-146.005	0.999813
-146	0.999737
-145.995	0.999584
-145.99	0.999438
-145.985	0.999343
-145.98	0.999308
-145.975	0.999378
-145.97	0.999461
-145.965	0.999519
-145.96	0.999729
-145.955	0.99992
-145.95	1.00005
-145.945	1.00021
-145.94	1.00042
-145.935	1.00057
-145.93	1.00068
-145.925	1.00072
-145.92	1.00072
-145.915	1.00067
-145.91	1.00069
-145.905	1.00077
-145.9	1.00072
-145.895	1.00064
-145.89	1.00055
-145.885	1.00046
-145.88	1.00037
-145.875	1.00031
-145.87	1.00019
-145.865	1.00017
-145.86	1.00021
-145.855	1.00023
-145.85	1.00022
-145.845	1.00028
-145.84	1.00038
-145.835	1.00039
-145.83	1.00033
-145.825	1.00035
-145.82	1.00036
-145.815	1.00025
-145.81	1.00016
-145.805	1
-145.8	0.99983
-145.795	0.99961
-145.79	0.999536
-145.785	0.999543
-145.78	0.999584
-145.775	0.999591
-145.77	0.999548
-145.765	0.999484
-145.76	0.999479
-145.755	0.999503
-145.75	0.99959
-145.745	0.999666
-145.74	0.999807
-145.735	0.999971
-145.73	1.00018
-145.725	1.00034
-145.72	1.00051
-145.715	1.00063
-145.71	1.00068
-145.705	1.00058
-145.7	1.00042
-145.695	1.00028
-145.69	1.00022
-145.685	1.00014
-145.68	1.00009
-145.675	1.00006
-145.67	1.00003
-145.665	0.999882
-145.66	0.99976
-145.655	0.999707
-145.65	0.999666
-145.645	0.999559
-145.64	0.999432
-145.635	0.999231
-145.63	0.999133
-145.625	0.9991
-145.62	0.999158
-145.615	0.999233
-145.61	0.999262
-145.605	0.999393
-145.6	0.999647
-145.595	0.999804
-145.59	0.999909
-145.585	1.00002
-145.58	1.00012
-145.575	1.00025
-145.57	1.0003
-145.565	1.00029
-145.56	1.00031
-145.555	1.00032
-145.55	1.00032
-145.545	1.00043
-145.54	1.00062
-145.535	1.00083
-145.53	1.00105
-145.525	1.00118
-145.52	1.00136
-145.515	1.00143
-145.51	1.00138
-145.505	1.00126
-145.5	1.00123
-145.495	1.00121
-145.49	1.00128
-145.485	1.0012
-145.48	1.00115
-145.475	1.00108
-145.47	1.00096
-145.465	1.00081
-145.46	1.00059
-145.455	1.00031
-145.45	1.00012
-145.445	0.999944
-145.44	0.999767
-145.435	0.999603
-145.43	0.999481
-145.425	0.999519
-145.42	0.999607
-145.415	0.999705
-145.41	0.999743
-145.405	0.99966
-145.4	0.999548
-145.395	0.999451
-145.39	0.999516
-145.385	0.999574
-145.38	0.999618
-145.375	0.999702
-145.37	0.999845
-145.365	0.999934
-145.36	0.999981
-145.355	0.999994
-145.35	0.999997
-145.345	1.00011
-145.34	1.00013
-145.335	1.00021
-145.33	1.0002
-145.325	1.00022
-145.32	1.00024
-145.315	1.0003
-145.31	1.0003
-145.305	1.00023
-145.3	1.00018
-145.295	1.00031
-145.29	1.00053
-145.285	1.00066
-145.28	1.00061
-145.275	1.00048
-145.27	1.00048
-145.265	1.00047
-145.26	1.0005
-145.255	1.00053
-145.25	1.00053
-145.245	1.00061
-145.24	1.00065
-145.235	1.00069
-145.23	1.00072
-145.225	1.00077
-145.22	1.00078
-145.215	1.00076
-145.21	1.00069
-145.205	1.00052
-145.2	1.00035
-145.195	1.00019
-145.19	0.999973
-145.185	0.999656
-145.18	0.999387
-145.175	0.999251
-145.17	0.999185
-145.165	0.999175
-145.16	0.999157
-145.155	0.999111
-145.15	0.999072
-145.145	0.99915
-145.14	0.999313
-145.135	0.999509
-145.13	0.999689
-145.125	0.999738
-145.12	0.99977
-145.115	0.999836
-145.11	0.999896
-145.105	0.999936
-145.1	1.00001
-145.095	1.0001
-145.09	1.00013
-145.085	1.00007
-145.08	0.999977
-145.075	0.999934
-145.07	0.999982
-145.065	0.999867
-145.06	0.999768
-145.055	0.999809
-145.05	0.999943
-145.045	1.00012
-145.04	1.00026
-145.035	1.00037
-145.03	1.00047
-145.025	1.00048
-145.02	1.00045
-145.015	1.00043
-145.01	1.00045
-145.005	1.00046
-145	1.00039
-144.995	1.00018
-144.99	1.00001
-144.985	0.999814
-144.98	0.999652
-144.975	0.999551
-144.97	0.999538
-144.965	0.999485
-144.96	0.999436
-144.955	0.999407
-144.95	0.99935
-144.945	0.999335
-144.94	0.999296
-144.935	0.999225
-144.93	0.999209
-144.925	0.999323
-144.92	0.999536
-144.915	0.999955
-144.91	1.00036
-144.905	1.00076
-144.9	1.00106
-144.895	1.00127
-144.89	1.00132
-144.885	1.0013
-144.88	1.00132
-144.875	1.00115
-144.87	1.00097
-144.865	1.00075
-144.86	1.00053
-144.855	1.00037
-144.85	1.00013
-144.845	0.999987
-144.84	0.999925
-144.835	0.999781
-144.83	0.999605
-144.825	0.999436
-144.82	0.99925
-144.815	0.999148
-144.81	0.99913
-144.805	0.999151
-144.8	0.999196
-144.795	0.999343
-144.79	0.999612
-144.785	0.999914
-144.78	1.00012
-144.775	1.00025
-144.77	1.00042
-144.765	1.00058
-144.76	1.00061
-144.755	1.00055
-144.75	1.00042
-144.745	1.00027
-144.74	1.00012
-144.735	0.999987
-144.73	0.999907
-144.725	0.999868
-144.72	0.999827
-144.715	0.999895
-144.71	0.999986
-144.705	1.00011
-144.7	1.00029
-144.695	1.00029
-144.69	1.00039
-144.685	1.00047
-144.68	1.00047
-144.675	1.00044
-144.67	1.00038
-144.665	1.00034
-144.66	1.00043
-144.655	1.00041
-144.65	1.00029
-144.645	1.00016
-144.64	1.00002
-144.635	0.999869
-144.63	0.99965
-144.625	0.999504
-144.62	0.999456
-144.615	0.999588
-144.61	0.999635
-144.605	0.999698
-144.6	0.999734
-144.595	0.999647
-144.59	0.99959
-144.585	0.999675
-144.58	0.999702
-144.575	0.999642
-144.57	0.999525
-144.565	0.999525
-144.56	0.999488
-144.555	0.999441
-144.55	0.999357
-144.545	0.999318
-144.54	0.99927
-144.535	0.999251
-144.53	0.999279
-144.525	0.999404
-144.52	0.999566
-144.515	0.999744
-144.51	0.999795
-144.505	0.999831
-144.5	0.999846
-144.495	0.999848
-144.49	0.999917
-144.485	0.999974
-144.48	1.00003
-144.475	1.00012
-144.47	1.00011
-144.465	1.00003
-144.46	0.999958
-144.455	0.999913
-144.45	0.999981
-144.445	0.999941
-144.44	0.999949
-144.435	0.999974
-144.43	1.00002
-144.425	1.00001
-144.42	0.999962
-144.415	0.999922
-144.41	0.999865
-144.405	0.999817
-144.4	0.999858
-144.395	0.999938
-144.39	1.0001
-144.385	1.00039
-144.38	1.00049
-144.375	1.00046
-144.37	1.00032
-144.365	1.00019
-144.36	1.00008
-144.355	1.00004
-144.35	1.00005
-144.345	0.999949
-144.34	0.999889
-144.335	0.999802
-144.33	0.999765
-144.325	0.999759
-144.32	0.999815
-144.315	0.999821
-144.31	0.999735
-144.305	0.999659
-144.3	0.999615
-144.295	0.999574
-144.29	0.999534
-144.285	0.999531
-144.28	0.999562
-144.275	0.999631
-144.27	0.999849
-144.265	1.00008
-144.26	1.00032
-144.255	1.00051
-144.25	1.00067
-144.245	1.00077
-144.24	1.00078
-144.235	1.00083
-144.23	1.00085
-144.225	1.00091
-144.22	1.00091
-144.215	1.00079
-144.21	1.00054
-144.205	1.00033
-144.2	1.00021
-144.195	1.00008
-144.19	0.999924
-144.185	0.999578
-144.18	0.999157
-144.175	0.998798
-144.17	0.998736
-144.165	0.998766
-144.16	0.998905
-144.155	0.999052
-144.15	0.999212
-144.145	0.999429
-144.14	0.999655
-144.135	0.999796
-144.13	0.99983
-144.125	0.999867
-144.12	0.999954
-144.115	1.00009
-144.11	1.00028
-144.105	1.00048
-144.1	1.00058
-144.095	1.00072
-144.09	1.00082
-144.085	1.00084
-144.08	1.00083
-144.075	1.00086
-144.07	1.00101
-144.065	1.001
